Stretch,Stress
1.0,0
1.4273,0.2856
1.6163,0.3833
1.882,0.4658
2.1596,0.5935
2.4383,0.6609
3.0585,0.8409
3.6153,1.006
4.1206,1.2087
4.852,1.5617
5.4053,1.915
5.7925,2.2985
6.1803,2.6519
6.4787,3.0205
6.6627,3.3816
6.936,3.7351
7.133,4.0812
7.1769,4.4501
7.2712,4.8414
7.4425,5.2026
7.512,5.5639
